3996.41355,0.77002
3994.48478,0.76963
3992.55601,0.76927
3990.62724,0.76896
3988.69847,0.76862
3986.76970,0.76835
3984.84093,0.76813
3982.91215,0.76776
3980.98338,0.76730
3979.05461,0.76694
3977.12584,0.76664
3975.19707,0.76629
3973.26830,0.76589
3971.33953,0.76550
3969.41076,0.76518
3967.48199,0.76490
3965.55322,0.76460
3963.62444,0.76429
3961.69567,0.76393
3959.76690,0.76355
3957.83813,0.76324
3955.90936,0.76294
3953.98059,0.76264
3952.05182,0.76237
3950.12305,0.76197
3948.19428,0.76143
3946.26550,0.76109
3944.33673,0.76087
3942.40796,0.76039
3940.47919,0.75992
3938.55042,0.75976
3936.62165,0.75972
3934.69288,0.75960
3932.76411,0.75906
3930.83534,0.75820
3928.90657,0.75775
3926.97779,0.75767
3925.04902,0.75733
3923.12025,0.75684
3921.19148,0.75661
3919.26271,0.75633
3917.33394,0.75569
3915.40517,0.75504
3913.47640,0.75479
3911.54763,0.75476
3909.61886,0.75467
3907.69008,0.75461
3905.76131,0.75432
3903.83254,0.75335
3901.90377,0.75220
3899.97500,0.75144
3898.04623,0.75104
3896.11746,0.75125
3894.18869,0.75180
3892.25992,0.75155
3890.33115,0.75063
3888.40237,0.75055
3886.47360,0.75060
3884.54483,0.74978
3882.61606,0.74923
3880.68729,0.74874
3878.75852,0.74803
3876.82975,0.74810
3874.90098,0.74819
3872.97221,0.74777
3871.04344,0.74711
3869.11466,0.74605
3867.18589,0.74561
3865.25712,0.74564
3863.32835,0.74502
3861.39958,0.74446
3859.47081,0.74467
3857.54204,0.74535
3855.61327,0.74556
3853.68450,0.74327
3851.75572,0.74053
3849.82695,0.74074
3847.89818,0.74205
3845.96941,0.74276
3844.04064,0.74252
3842.11187,0.74187
3840.18310,0.74130
3838.25433,0.74046
3836.32556,0.73956
3834.39679,0.73918
3832.46801,0.73900
3830.53924,0.73877
3828.61047,0.73868
3826.68170,0.73856
3824.75293,0.73858
3822.82416,0.73852
3820.89539,0.73728
3818.96662,0.73630
3817.03785,0.73616
3815.10908,0.73540
3813.18030,0.73504
3811.25153,0.73567
3809.32276,0.73619
3807.39399,0.73554
3805.46522,0.73455
3803.53645,0.73447
3801.60768,0.73375
3799.67891,0.73249
3797.75014,0.73236
3795.82137,0.73235
3793.89259,0.73215
3791.96382,0.73227
3790.03505,0.73226
3788.10628,0.73194
3786.17751,0.73150
3784.24874,0.73104
3782.31997,0.73089
3780.39120,0.73069
3778.46243,0.72989
3776.53366,0.72927
3774.60488,0.72932
3772.67611,0.72947
3770.74734,0.72900
3768.81857,0.72806
3766.88980,0.72750
3764.96103,0.72721
3763.03226,0.72720
3761.10349,0.72730
3759.17472,0.72670
3757.24594,0.72599
3755.31717,0.72617
3753.38840,0.72647
3751.45963,0.72538
3749.53086,0.72360
3747.60209,0.72356
3745.67332,0.72388
3743.74455,0.72250
3741.81578,0.72202
3739.88701,0.72337
3737.95823,0.72429
3736.02946,0.72332
3734.10069,0.72152
3732.17192,0.72051
3730.24315,0.72058
3728.31438,0.72117
3726.38561,0.72127
3724.45684,0.72076
3722.52807,0.72041
3720.59930,0.72026
3718.67052,0.72032
3716.74175,0.72076
3714.81298,0.72139
3712.88421,0.72131
3710.95544,0.71992
3709.02667,0.71881
3707.09790,0.71897
3705.16913,0.71973
3703.24036,0.72013
3701.31159,0.71974
3699.38281,0.71956
3697.45404,0.72006
3695.52527,0.72079
3693.59650,0.72165
3691.66773,0.72250
3689.73896,0.72259
3687.81019,0.72199
3685.88142,0.72218
3683.95265,0.72327
3682.02388,0.72440
3680.09510,0.72520
3678.16633,0.72580
3676.23756,0.72519
3674.30879,0.72368
3672.38002,0.72376
3670.45125,0.72411
3668.52248,0.72364
3666.59371,0.72412
3664.66494,0.72541
3662.73617,0.72650
3660.80739,0.72748
3658.87862,0.72847
3656.94985,0.72886
3655.02108,0.72911
3653.09231,0.73053
3651.16354,0.73216
3649.23477,0.73206
3647.30600,0.73162
3645.37723,0.73285
3643.44845,0.73493
3641.51968,0.73687
3639.59091,0.73849
3637.66214,0.74014
3635.73337,0.74187
3633.80460,0.74366
3631.87583,0.74572
3629.94706,0.74742
3628.01829,0.74819
3626.08952,0.75002
3624.16074,0.75325
3622.23197,0.75656
3620.30320,0.75922
3618.37443,0.76131
3616.44566,0.76380
3614.51689,0.76692
3612.58812,0.76995
3610.65935,0.77278
3608.73058,0.77560
3606.80181,0.77850
3604.87303,0.78176
3602.94426,0.78526
3601.01549,0.78856
3599.08672,0.79158
3597.15795,0.79465
3595.22918,0.79772
3593.30041,0.80085
3591.37164,0.80429
3589.44287,0.80782
3587.51410,0.81093
3585.58532,0.81382
3583.65655,0.81699
3581.72778,0.82022
3579.79901,0.82328
3577.87024,0.82617
3575.94147,0.82901
3574.01270,0.83188
3572.08393,0.83488
3570.15516,0.83789
3568.22639,0.84039
3566.29761,0.84228
3564.36884,0.84460
3562.44007,0.84760
3560.51130,0.85043
3558.58253,0.85289
3556.65376,0.85539
3554.72499,0.85794
3552.79622,0.86039
3550.86745,0.86281
3548.93867,0.86538
3547.00990,0.86804
3545.08113,0.87052
3543.15236,0.87277
3541.22359,0.87504
3539.29482,0.87753
3537.36605,0.88004
3535.43728,0.88241
3533.50851,0.88479
3531.57974,0.88724
3529.65096,0.88965
3527.72219,0.89208
3525.79342,0.89465
3523.86465,0.89720
3521.93588,0.89956
3520.00711,0.90188
3518.07834,0.90440
3516.14957,0.90710
3514.22080,0.90971
3512.29203,0.91206
3510.36325,0.91424
3508.43448,0.91647
3506.50571,0.91902
3504.57694,0.92174
3502.64817,0.92410
3500.71940,0.92618
3498.79063,0.92843
3496.86186,0.93065
3494.93309,0.93271
3493.00432,0.93474
3491.07554,0.93677
3489.14677,0.93888
3487.21800,0.94103
3485.28923,0.94305
3483.36046,0.94506
3481.43169,0.94725
3479.50292,0.94931
3477.57415,0.95118
3475.64538,0.95300
3473.71661,0.95491
3471.78783,0.95720
3469.85906,0.95968
3467.93029,0.96174
3466.00152,0.96326
3464.07275,0.96472
3462.14398,0.96638
3460.21521,0.96811
3458.28644,0.96966
3456.35767,0.97103
3454.42889,0.97248
3452.50012,0.97393
3450.57135,0.97526
3448.64258,0.97647
3446.71381,0.97748
3444.78504,0.97826
3442.85627,0.97899
3440.92750,0.97971
3438.99873,0.98043
3437.06996,0.98108
3435.14118,0.98123
3433.21241,0.98083
3431.28364,0.98029
3429.35487,0.97961
3427.42610,0.97865
3425.49733,0.97761
3423.56856,0.97649
3421.63979,0.97514
3419.71102,0.97361
3417.78225,0.97205
3415.85347,0.97050
3413.92470,0.96888
3411.99593,0.96700
3410.06716,0.96496
3408.13839,0.96283
3406.20962,0.96057
3404.28085,0.95838
3402.35208,0.95640
3400.42331,0.95420
3398.49454,0.95156
3396.56576,0.94884
3394.63699,0.94629
3392.70822,0.94373
3390.77945,0.94092
3388.85068,0.93786
3386.92191,0.93471
3384.99314,0.93152
3383.06437,0.92825
3381.13560,0.92491
3379.20683,0.92143
3377.27805,0.91765
3375.34928,0.91364
3373.42051,0.90964
3371.49174,0.90569
3369.56297,0.90160
3367.63420,0.89713
3365.70543,0.89232
3363.77666,0.88757
3361.84789,0.88306
3359.91912,0.87859
3357.99034,0.87408
3356.06157,0.86971
3354.13280,0.86556
3352.20403,0.86160
3350.27526,0.85761
3348.34649,0.85347
3346.41772,0.84948
3344.48895,0.84576
3342.56018,0.84206
3340.63140,0.83839
3338.70263,0.83482
3336.77386,0.83122
3334.84509,0.82763
3332.91632,0.82422
3330.98755,0.82094
3329.05878,0.81782
3327.13001,0.81486
3325.20124,0.81188
3323.27247,0.80886
3321.34369,0.80592
3319.41492,0.80311
3317.48615,0.80041
3315.55738,0.79781
3313.62861,0.79527
3311.69984,0.79287
3309.77107,0.79064
3307.84230,0.78842
3305.91353,0.78618
3303.98476,0.78393
3302.05598,0.78170
3300.12721,0.77963
3298.19844,0.77769
3296.26967,0.77573
3294.34090,0.77381
3292.41213,0.77195
3290.48336,0.77012
3288.55459,0.76838
3286.62582,0.76673
3284.69705,0.76510
3282.76827,0.76354
3280.83950,0.76205
3278.91073,0.76057
3276.98196,0.75913
3275.05319,0.75775
3273.12442,0.75637
3271.19565,0.75500
3269.26688,0.75359
3267.33811,0.75216
3265.40934,0.75078
3263.48056,0.74942
3261.55179,0.74801
3259.62302,0.74657
3257.69425,0.74514
3255.76548,0.74368
3253.83671,0.74216
3251.90794,0.74061
3249.97917,0.73908
3248.05040,0.73757
3246.12162,0.73597
3244.19285,0.73425
3242.26408,0.73254
3240.33531,0.73086
3238.40654,0.72918
3236.47777,0.72753
3234.54900,0.72587
3232.62023,0.72414
3230.69146,0.72237
3228.76269,0.72059
3226.83391,0.71882
3224.90514,0.71710
3222.97637,0.71541
3221.04760,0.71373
3219.11883,0.71205
3217.19006,0.71036
3215.26129,0.70867
3213.33252,0.70701
3211.40375,0.70539
3209.47498,0.70376
3207.54620,0.70212
3205.61743,0.70047
3203.68866,0.69881
3201.75989,0.69716
3199.83112,0.69544
3197.90235,0.69367
3195.97358,0.69193
3194.04481,0.69024
3192.11604,0.68862
3190.18727,0.68705
3188.25849,0.68547
3186.32972,0.68388
3184.40095,0.68234
3182.47218,0.68083
3180.54341,0.67936
3178.61464,0.67790
3176.68587,0.67643
3174.75710,0.67500
3172.82833,0.67363
3170.89956,0.67225
3168.97078,0.67090
3167.04201,0.66963
3165.11324,0.66837
3163.18447,0.66707
3161.25570,0.66578
3159.32693,0.66453
3157.39816,0.66334
3155.46939,0.66220
3153.54062,0.66104
3151.61185,0.65989
3149.68307,0.65877
3147.75430,0.65764
3145.82553,0.65650
3143.89676,0.65541
3141.96799,0.65436
3140.03922,0.65335
3138.11045,0.65234
3136.18168,0.65129
3134.25291,0.65023
3132.32413,0.64920
3130.39536,0.64822
3128.46659,0.64726
3126.53782,0.64630
3124.60905,0.64532
3122.68028,0.64437
3120.75151,0.64344
3118.82274,0.64249
3116.89397,0.64154
3114.96520,0.64060
3113.03642,0.63966
3111.10765,0.63876
3109.17888,0.63788
3107.25011,0.63698
3105.32134,0.63610
3103.39257,0.63524
3101.46380,0.63434
3099.53503,0.63344
3097.60626,0.63260
3095.67749,0.63175
3093.74871,0.63092
3091.81994,0.63012
3089.89117,0.62930
3087.96240,0.62850
3086.03363,0.62772
3084.10486,0.62697
3082.17609,0.62622
3080.24732,0.62544
3078.31855,0.62465
3076.38978,0.62394
3074.46100,0.62325
3072.53223,0.62251
3070.60346,0.62179
3068.67469,0.62111
3066.74592,0.62040
3064.81715,0.61969
3062.88838,0.61902
3060.95961,0.61840
3059.03084,0.61783
3057.10207,0.61722
3055.17329,0.61657
3053.24452,0.61596
3051.31575,0.61542
3049.38698,0.61490
3047.45821,0.61441
3045.52944,0.61394
3043.60067,0.61351
3041.67190,0.61317
3039.74313,0.61289
3037.81435,0.61263
3035.88558,0.61241
3033.95681,0.61226
3032.02804,0.61220
3030.09927,0.61224
3028.17050,0.61237
3026.24173,0.61261
3024.31296,0.61296
3022.38419,0.61342
3020.45542,0.61398
3018.52664,0.61466
3016.59787,0.61544
3014.66910,0.61635
3012.74033,0.61739
3010.81156,0.61847
3008.88279,0.61958
3006.95402,0.62071
3005.02525,0.62180
3003.09648,0.62285
3001.16771,0.62388
2999.23893,0.62485
2997.31016,0.62578
2995.38139,0.62670
2993.45262,0.62759
2991.52385,0.62846
2989.59508,0.62935
2987.66631,0.63023
2985.73754,0.63109
2983.80877,0.63195
2981.88000,0.63280
2979.95122,0.63371
2978.02245,0.63479
2976.09368,0.63609
2974.16491,0.63773
2972.23614,0.63989
2970.30737,0.64261
2968.37860,0.64578
2966.44983,0.64917
2964.52106,0.65241
2962.59229,0.65511
2960.66351,0.65694
2958.73474,0.65786
2956.80597,0.65821
2954.87720,0.65832
2952.94843,0.65810
2951.01966,0.65718
2949.09089,0.65520
2947.16212,0.65232
2945.23335,0.64943
2943.30457,0.64749
2941.37580,0.64702
2939.44703,0.64808
2937.51826,0.65040
2935.58949,0.65363
2933.66072,0.65745
2931.73195,0.66138
2929.80318,0.66487
2927.87441,0.66742
2925.94564,0.66870
2924.01686,0.66860
2922.08809,0.66723
2920.15932,0.66452
2918.23055,0.66028
2916.30178,0.65457
2914.37301,0.64801
2912.44424,0.64150
2910.51547,0.63568
2908.58670,0.63064
2906.65793,0.62613
2904.72915,0.62192
2902.80038,0.61787
2900.87161,0.61400
2898.94284,0.61041
2897.01407,0.60712
2895.08530,0.60418
2893.15653,0.60165
2891.22776,0.59954
2889.29899,0.59783
2887.37022,0.59655
2885.44144,0.59565
2883.51267,0.59509
2881.58390,0.59488
2879.65513,0.59483
2877.72636,0.59472
2875.79759,0.59445
2873.86882,0.59410
2871.94005,0.59376
2870.01128,0.59333
2868.08251,0.59247
2866.15373,0.59097
2864.22496,0.58908
2862.29619,0.58736
2860.36742,0.58643
2858.43865,0.58637
2856.50988,0.58668
2854.58111,0.58675
2852.65234,0.58620
2850.72357,0.58483
2848.79480,0.58277
2846.86602,0.58052
2844.93725,0.57857
2843.00848,0.57703
2841.07971,0.57558
2839.15094,0.57373
2837.22217,0.57114
2835.29340,0.56777
2833.36463,0.56398
2831.43586,0.56035
2829.50708,0.55733
2827.57831,0.55497
2825.64954,0.55314
2823.72077,0.55165
2821.79200,0.55037
2819.86323,0.54926
2817.93446,0.54828
2816.00569,0.54735
2814.07692,0.54646
2812.14815,0.54560
2810.21937,0.54475
2808.29060,0.54393
2806.36183,0.54313
2804.43306,0.54231
2802.50429,0.54151
2800.57552,0.54075
2798.64675,0.54003
2796.71798,0.53935
2794.78921,0.53868
2792.86044,0.53798
2790.93166,0.53729
2789.00289,0.53662
2787.07412,0.53594
2785.14535,0.53528
2783.21658,0.53466
2781.28781,0.53403
2779.35904,0.53341
2777.43027,0.53280
2775.50150,0.53218
2773.57273,0.53162
2771.64395,0.53108
2769.71518,0.53051
2767.78641,0.52994
2765.85764,0.52938
2763.92887,0.52882
2762.00010,0.52826
2760.07133,0.52769
2758.14256,0.52711
2756.21379,0.52657
2754.28502,0.52607
2752.35624,0.52555
2750.42747,0.52502
2748.49870,0.52450
2746.56993,0.52400
2744.64116,0.52354
2742.71239,0.52308
2740.78362,0.52257
2738.85485,0.52209
2736.92608,0.52162
2734.99730,0.52115
2733.06853,0.52067
2731.13976,0.52018
2729.21099,0.51968
2727.28222,0.51919
2725.35345,0.51869
2723.42468,0.51814
2721.49591,0.51756
2719.56714,0.51695
2717.63837,0.51632
2715.70959,0.51569
2713.78082,0.51505
2711.85205,0.51442
2709.92328,0.51385
2707.99451,0.51327
2706.06574,0.51267
2704.13697,0.51210
2702.20820,0.51154
2700.27943,0.51100
2698.35066,0.51049
2696.42188,0.50998
2694.49311,0.50946
2692.56434,0.50896
2690.63557,0.50846
2688.70680,0.50794
2686.77803,0.50742
2684.84926,0.50689
2682.92049,0.50638
2680.99172,0.50590
2679.06295,0.50539
2677.13417,0.50487
2675.20540,0.50438
2673.27663,0.50390
2671.34786,0.50340
2669.41909,0.50290
2667.49032,0.50240
2665.56155,0.50191
2663.63278,0.50144
2661.70401,0.50094
2659.77524,0.50043
2657.84646,0.49992
2655.91769,0.49941
2653.98892,0.49889
2652.06015,0.49835
2650.13138,0.49780
2648.20261,0.49727
2646.27384,0.49677
2644.34507,0.49625
2642.41630,0.49571
2640.48752,0.49520
2638.55875,0.49470
2636.62998,0.49420
2634.70121,0.49371
2632.77244,0.49320
2630.84367,0.49271
2628.91490,0.49223
2626.98613,0.49174
2625.05736,0.49125
2623.12859,0.49076
2621.19981,0.49027
2619.27104,0.48979
2617.34227,0.48931
2615.41350,0.48881
2613.48473,0.48832
2611.55596,0.48784
2609.62719,0.48734
2607.69842,0.48683
2605.76965,0.48631
2603.84088,0.48580
2601.91210,0.48532
2599.98333,0.48484
2598.05456,0.48434
2596.12579,0.48385
2594.19702,0.48337
2592.26825,0.48290
2590.33948,0.48243
2588.41071,0.48195
2586.48194,0.48146
2584.55317,0.48101
2582.62439,0.48056
2580.69562,0.48007
2578.76685,0.47956
2576.83808,0.47906
2574.90931,0.47856
2572.98054,0.47806
2571.05177,0.47755
2569.12300,0.47704
2567.19423,0.47657
2565.26546,0.47611
2563.33668,0.47562
2561.40791,0.47513
2559.47914,0.47465
2557.55037,0.47419
2555.62160,0.47373
2553.69283,0.47323
2551.76406,0.47272
2549.83529,0.47224
2547.90652,0.47178
2545.97775,0.47130
2544.04897,0.47082
2542.12020,0.47034
2540.19143,0.46987
2538.26266,0.46942
2536.33389,0.46894
2534.40512,0.46844
2532.47635,0.46795
2530.54758,0.46749
2528.61881,0.46700
2526.69003,0.46652
2524.76126,0.46602
2522.83249,0.46554
2520.90372,0.46507
2518.97495,0.46459
2517.04618,0.46407
2515.11741,0.46357
2513.18864,0.46309
2511.25987,0.46261
2509.33110,0.46213
2507.40232,0.46164
2505.47355,0.46115
2503.54478,0.46070
2501.61601,0.46022
2499.68724,0.45974
2497.75847,0.45927
2495.82970,0.45882
2493.90093,0.45836
2491.97216,0.45791
2490.04339,0.45743
2488.11461,0.45696
2486.18584,0.45651
2484.25707,0.45604
2482.32830,0.45557
2480.39953,0.45511
2478.47076,0.45466
2476.54199,0.45423
2474.61322,0.45378
2472.68445,0.45330
2470.75568,0.45281
2468.82690,0.45236
2466.89813,0.45191
2464.96936,0.45146
2463.04059,0.45100
2461.11182,0.45053
2459.18305,0.45008
2457.25428,0.44964
2455.32551,0.44916
2453.39674,0.44869
2451.46797,0.44824
2449.53919,0.44778
2447.61042,0.44732
2445.68165,0.44686
2443.75288,0.44638
2441.82411,0.44594
2439.89534,0.44550
2437.96657,0.44504
2436.03780,0.44457
2434.10903,0.44413
2432.18025,0.44368
2430.25148,0.44326
2428.32271,0.44283
2426.39394,0.44236
2424.46517,0.44190
2422.53640,0.44147
2420.60763,0.44102
2418.67886,0.44056
2416.75009,0.44010
2414.82132,0.43966
2412.89254,0.43925
2410.96377,0.43882
2409.03500,0.43836
2407.10623,0.43792
2405.17746,0.43749
2403.24869,0.43706
2401.31992,0.43662
2399.39115,0.43617
2397.46238,0.43572
2395.53361,0.43530
2393.60483,0.43488
2391.67606,0.43442
2389.74729,0.43398
2387.81852,0.43355
2385.88975,0.43308
2383.96098,0.43253
2382.03221,0.43185
2380.10344,0.43103
2378.17467,0.43008
2376.24590,0.42892
2374.31712,0.42748
2372.38835,0.42582
2370.45958,0.42401
2368.53081,0.42213
2366.60204,0.42024
2364.67327,0.41827
2362.74450,0.41648
2360.81573,0.41524
2358.88696,0.41438
2356.95819,0.41394
2355.02941,0.41419
2353.10064,0.41497
2351.17187,0.41645
2349.24310,0.41835
2347.31433,0.41952
2345.38556,0.41872
2343.45679,0.41657
2341.52802,0.41520
2339.59925,0.41475
2337.67048,0.41451
2335.74170,0.41417
2333.81293,0.41382
2331.88416,0.41342
2329.95539,0.41287
2328.02662,0.41255
2326.09785,0.41261
2324.16908,0.41267
2322.24031,0.41255
2320.31154,0.41244
2318.38276,0.41253
2316.45399,0.41278
2314.52522,0.41291
2312.59645,0.41275
2310.66768,0.41248
2308.73891,0.41235
2306.81014,0.41235
2304.88137,0.41236
2302.95260,0.41229
2301.02383,0.41209
2299.09505,0.41185
2297.16628,0.41162
2295.23751,0.41137
2293.30874,0.41110
2291.37997,0.41084
2289.45120,0.41058
2287.52243,0.41031
2285.59366,0.41004
2283.66489,0.40974
2281.73612,0.40941
2279.80734,0.40901
2277.87857,0.40856
2275.94980,0.40810
2274.02103,0.40765
2272.09226,0.40723
2270.16349,0.40684
2268.23472,0.40644
2266.30595,0.40602
2264.37718,0.40560
2262.44841,0.40523
2260.51963,0.40486
2258.59086,0.40447
2256.66209,0.40407
2254.73332,0.40367
2252.80455,0.40329
2250.87578,0.40292
2248.94701,0.40250
2247.01824,0.40210
2245.08947,0.40171
2243.16070,0.40131
2241.23192,0.40091
2239.30315,0.40050
2237.37438,0.40008
2235.44561,0.39968
2233.51684,0.39928
2231.58807,0.39885
2229.65930,0.39843
2227.73053,0.39803
2225.80176,0.39763
2223.87298,0.39724
2221.94421,0.39683
2220.01544,0.39641
2218.08667,0.39602
2216.15790,0.39563
2214.22913,0.39523
2212.30036,0.39482
2210.37159,0.39442
2208.44282,0.39403
2206.51405,0.39367
2204.58527,0.39328
2202.65650,0.39288
2200.72773,0.39252
2198.79896,0.39217
2196.87019,0.39180
2194.94142,0.39141
2193.01265,0.39103
2191.08388,0.39067
2189.15511,0.39033
2187.22634,0.38997
2185.29756,0.38959
2183.36879,0.38922
2181.44002,0.38888
2179.51125,0.38853
2177.58248,0.38817
2175.65371,0.38780
2173.72494,0.38743
2171.79617,0.38710
2169.86740,0.38675
2167.93863,0.38638
2166.00985,0.38602
2164.08108,0.38567
2162.15231,0.38532
2160.22354,0.38497
2158.29477,0.38461
2156.36600,0.38425
2154.43723,0.38392
2152.50846,0.38359
2150.57969,0.38324
2148.65092,0.38290
2146.72214,0.38257
2144.79337,0.38225
2142.86460,0.38193
2140.93583,0.38159
2139.00706,0.38125
2137.07829,0.38095
2135.14952,0.38063
2133.22075,0.38030
2131.29198,0.37997
2129.36320,0.37965
2127.43443,0.37933
2125.50566,0.37902
2123.57689,0.37868
2121.64812,0.37834
2119.71935,0.37802
2117.79058,0.37770
2115.86181,0.37735
2113.93304,0.37700
2112.00427,0.37665
2110.07549,0.37633
2108.14672,0.37601
2106.21795,0.37567
2104.28918,0.37533
2102.36041,0.37501
2100.43164,0.37469
2098.50287,0.37437
2096.57410,0.37404
2094.64533,0.37372
2092.71656,0.37342
2090.78778,0.37314
2088.85901,0.37282
2086.93024,0.37250
2085.00147,0.37221
2083.07270,0.37193
2081.14393,0.37166
2079.21516,0.37136
2077.28639,0.37103
2075.35762,0.37070
2073.42885,0.37039
2071.50007,0.37005
2069.57130,0.36970
2067.64253,0.36935
2065.71376,0.36897
2063.78499,0.36859
2061.85622,0.36822
2059.92745,0.36784
2057.99868,0.36746
2056.06991,0.36710
2054.14114,0.36672
2052.21236,0.36633
2050.28359,0.36593
2048.35482,0.36553
2046.42605,0.36515
2044.49728,0.36477
2042.56851,0.36434
2040.63974,0.36391
2038.71097,0.36350
2036.78220,0.36312
2034.85343,0.36271
2032.92465,0.36228
2030.99588,0.36185
2029.06711,0.36144
2027.13834,0.36103
2025.20957,0.36059
2023.28080,0.36015
2021.35203,0.35974
2019.42326,0.35933
2017.49449,0.35887
2015.56571,0.35837
2013.63694,0.35792
2011.70817,0.35752
2009.77940,0.35710
2007.85063,0.35665
2005.92186,0.35620
2003.99309,0.35576
2002.06432,0.35534
2000.13555,0.35492
1998.20678,0.35448
1996.27800,0.35406
1994.34923,0.35368
1992.42046,0.35321
1990.49169,0.35268
1988.56292,0.35226
1986.63415,0.35188
1984.70538,0.35151
1982.77661,0.35114
1980.84784,0.35075
1978.91907,0.35036
1976.99029,0.34999
1975.06152,0.34963
1973.13275,0.34928
1971.20398,0.34895
1969.27521,0.34861
1967.34644,0.34817
1965.41767,0.34774
1963.48890,0.34739
1961.56013,0.34706
1959.63136,0.34670
1957.70258,0.34632
1955.77381,0.34594
1953.84504,0.34557
1951.91627,0.34520
1949.98750,0.34485
1948.05873,0.34454
1946.12996,0.34422
1944.20119,0.34383
1942.27242,0.34326
1940.34365,0.34276
1938.41487,0.34245
1936.48610,0.34212
1934.55733,0.34168
1932.62856,0.34119
1930.69979,0.34072
1928.77102,0.34024
1926.84225,0.33979
1924.91348,0.33932
1922.98471,0.33872
1921.05593,0.33821
1919.12716,0.33770
1917.19839,0.33697
1915.26962,0.33639
1913.34085,0.33608
1911.41208,0.33569
1909.48331,0.33512
1907.55454,0.33454
1905.62577,0.33405
1903.69700,0.33362
1901.76822,0.33316
1899.83945,0.33269
1897.91068,0.33224
1895.98191,0.33173
1894.05314,0.33122
1892.12437,0.33081
1890.19560,0.33026
1888.26683,0.32956
1886.33806,0.32908
1884.40929,0.32872
1882.48051,0.32827
1880.55174,0.32780
1878.62297,0.32734
1876.69420,0.32691
1874.76543,0.32654
1872.83666,0.32632
1870.90789,0.32603
1868.97912,0.32531
1867.05035,0.32452
1865.12158,0.32421
1863.19280,0.32410
1861.26403,0.32386
1859.33526,0.32353
1857.40649,0.32321
1855.47772,0.32291
1853.54895,0.32261
1851.62018,0.32236
1849.69141,0.32218
1847.76264,0.32208
1845.83387,0.32178
1843.90509,0.32095
1841.97632,0.32034
1840.04755,0.32035
1838.11878,0.32030
1836.19001,0.31999
1834.26124,0.31983
1832.33247,0.31978
1830.40370,0.31935
1828.47493,0.31877
1826.54615,0.31850
1824.61738,0.31821
1822.68861,0.31796
1820.75984,0.31793
1818.83107,0.31786
1816.90230,0.31770
1814.97353,0.31765
1813.04476,0.31767
1811.11599,0.31755
1809.18722,0.31740
1807.25844,0.31750
1805.32967,0.31784
1803.40090,0.31821
1801.47213,0.31842
1799.54336,0.31859
1797.61459,0.31912
1795.68582,0.32005
1793.75705,0.32092
1791.82828,0.32144
1789.89951,0.32237
1787.97073,0.32406
1786.04196,0.32596
1784.11319,0.32785
1782.18442,0.32986
1780.25565,0.33194
1778.32688,0.33404
1776.39811,0.33618
1774.46934,0.33801
1772.54057,0.33908
1770.61180,0.33978
1768.68302,0.34064
1766.75425,0.34152
1764.82548,0.34240
1762.89671,0.34294
1760.96794,0.34302
1759.03917,0.34314
1757.11040,0.34314
1755.18163,0.34301
1753.25286,0.34301
1751.32409,0.34247
1749.39531,0.34129
1747.46654,0.34044
1745.53777,0.34002
1743.60900,0.33974
1741.68023,0.33933
1739.75146,0.33861
1737.82269,0.33827
1735.89392,0.33817
1733.96515,0.33701
1732.03638,0.33592
1730.10760,0.33616
1728.17883,0.33678
1726.25006,0.33753
1724.32129,0.33840
1722.39252,0.33941
1720.46375,0.34061
1718.53498,0.34128
1716.60621,0.34105
1714.67744,0.34107
1712.74866,0.34159
1710.81989,0.34199
1708.89112,0.34202
1706.96235,0.34137
1705.03358,0.34024
1703.10481,0.33950
1701.17604,0.33806
1699.24727,0.33535
1697.31850,0.33334
1695.38973,0.33142
1693.46095,0.32995
1691.53218,0.32937
1689.60341,0.32875
1687.67464,0.32836
1685.74587,0.32790
1683.81710,0.32633
1681.88833,0.32562
1679.95956,0.32652
1678.03079,0.32775
1676.10202,0.32866
1674.17324,0.32949
1672.24447,0.33086
1670.31570,0.33245
1668.38693,0.33402
1666.45816,0.33615
1664.52939,0.33867
1662.60062,0.34127
1660.67185,0.34412
1658.74308,0.34734
1656.81431,0.35078
1654.88553,0.35420
1652.95676,0.35772
1651.02799,0.36154
1649.09922,0.36559
1647.17045,0.36973
1645.24168,0.37366
1643.31291,0.37736
1641.38414,0.38092
1639.45537,0.38422
1637.52660,0.38719
1635.59782,0.38992
1633.66905,0.39245
1631.74028,0.39413
1629.81151,0.39409
1627.88274,0.39245
1625.95397,0.39056
1624.02520,0.38860
1622.09643,0.38656
1620.16766,0.38524
1618.23888,0.38342
1616.31011,0.37936
1614.38134,0.37511
1612.45257,0.37197
1610.52380,0.36873
1608.59503,0.36514
1606.66626,0.36168
1604.73749,0.35844
1602.80872,0.35519
1600.87995,0.35197
1598.95117,0.34894
1597.02240,0.34597
1595.09363,0.34293
1593.16486,0.33993
1591.23609,0.33709
1589.30732,0.33434
1587.37855,0.33168
1585.44978,0.32910
1583.52101,0.32664
1581.59224,0.32445
1579.66346,0.32274
1577.73469,0.32074
1575.80592,0.31756
1573.87715,0.31520
1571.94838,0.31414
1570.01961,0.31239
1568.09084,0.31011
1566.16207,0.30860
1564.23330,0.30764
1562.30453,0.30723
1560.37575,0.30617
1558.44698,0.30248
1556.51821,0.30001
1554.58944,0.29943
1552.66067,0.29878
1550.73190,0.29786
1548.80313,0.29692
1546.87436,0.29627
1544.94559,0.29568
1543.01682,0.29486
1541.08804,0.29324
1539.15927,0.29092
1537.23050,0.29031
1535.30173,0.29056
1533.37296,0.28996
1531.44419,0.28916
1529.51542,0.28908
1527.58665,0.28893
1525.65788,0.28855
1523.72910,0.28828
1521.80033,0.28761
1519.87156,0.28685
1517.94279,0.28662
1516.01402,0.28642
1514.08525,0.28636
1512.15648,0.28661
1510.22771,0.28699
1508.29894,0.28688
1506.37017,0.28547
1504.44139,0.28487
1502.51262,0.28572
1500.58385,0.28666
1498.65508,0.28710
1496.72631,0.28713
1494.79754,0.28748
1492.86877,0.28840
1490.94000,0.28925
1489.01123,0.28977
1487.08246,0.29062
1485.15368,0.29210
1483.22491,0.29389
1481.29614,0.29584
1479.36737,0.29803
1477.43860,0.30057
1475.50983,0.30354
1473.58106,0.30720
1471.65229,0.31167
1469.72352,0.31627
1467.79475,0.32056
1465.86597,0.32425
1463.93720,0.32699
1462.00843,0.32899
1460.07966,0.33038
1458.15089,0.33039
1456.22212,0.32884
1454.29335,0.32780
1452.36458,0.32723
1450.43581,0.32617
1448.50704,0.32432
1446.57826,0.32208
1444.64949,0.32015
1442.72072,0.31850
1440.79195,0.31719
1438.86318,0.31618
1436.93441,0.31470
1435.00564,0.31315
1433.07687,0.31250
1431.14810,0.31217
1429.21933,0.31189
1427.29055,0.31206
1425.36178,0.31250
1423.43301,0.31303
1421.50424,0.31369
1419.57547,0.31404
1417.64670,0.31410
1415.71793,0.31454
1413.78916,0.31523
1411.86039,0.31585
1409.93161,0.31654
1408.00284,0.31738
1406.07407,0.31822
1404.14530,0.31903
1402.21653,0.31997
1400.28776,0.32098
1398.35899,0.32197
1396.43022,0.32314
1394.50145,0.32480
1392.57268,0.32725
1390.64390,0.33062
1388.71513,0.33521
1386.78636,0.34136
1384.85759,0.34832
1382.92882,0.35508
1381.00005,0.36101
1379.07128,0.36490
1377.14251,0.36519
1375.21374,0.36096
1373.28497,0.35408
1371.35619,0.34835
1369.42742,0.34495
1367.49865,0.34294
1365.56988,0.34142
1363.64111,0.33955
1361.71234,0.33716
1359.78357,0.33497
1357.85480,0.33302
1355.92603,0.33090
1353.99726,0.32868
1352.06848,0.32665
1350.13971,0.32485
1348.21094,0.32329
1346.28217,0.32193
1344.35340,0.32075
1342.42463,0.31972
1340.49586,0.31870
1338.56709,0.31770
1336.63832,0.31700
1334.70955,0.31662
1332.78077,0.31643
1330.85200,0.31639
1328.92323,0.31645
1326.99446,0.31655
1325.06569,0.31674
1323.13692,0.31706
1321.20815,0.31751
1319.27938,0.31806
1317.35061,0.31868
1315.42183,0.31940
1313.49306,0.32026
1311.56429,0.32120
1309.63552,0.32216
1307.70675,0.32312
1305.77798,0.32404
1303.84921,0.32485
1301.92044,0.32555
1299.99167,0.32613
1298.06290,0.32660
1296.13412,0.32702
1294.20535,0.32742
1292.27658,0.32779
1290.34781,0.32817
1288.41904,0.32858
1286.49027,0.32908
1284.56150,0.32973
1282.63273,0.33044
1280.70396,0.33119
1278.77519,0.33204
1276.84641,0.33300
1274.91764,0.33405
1272.98887,0.33517
1271.06010,0.33637
1269.13133,0.33770
1267.20256,0.33920
1265.27379,0.34079
1263.34502,0.34239
1261.41625,0.34406
1259.48748,0.34582
1257.55870,0.34767
1255.62993,0.34962
1253.70116,0.35165
1251.77239,0.35390
1249.84362,0.35644
1247.91485,0.35912
1245.98608,0.36180
1244.05731,0.36447
1242.12854,0.36711
1240.19977,0.36972
1238.27099,0.37230
1236.34222,0.37477
1234.41345,0.37718
1232.48468,0.37961
1230.55591,0.38198
1228.62714,0.38428
1226.69837,0.38654
1224.76960,0.38878
1222.84083,0.39110
1220.91206,0.39351
1218.98328,0.39594
1217.05451,0.39851
1215.12574,0.40143
1213.19697,0.40472
1211.26820,0.40831
1209.33943,0.41192
1207.41066,0.41526
1205.48189,0.41828
1203.55312,0.42095
1201.62434,0.42332
1199.69557,0.42558
1197.76680,0.42790
1195.83803,0.43032
1193.90926,0.43287
1191.98049,0.43557
1190.05172,0.43839
1188.12295,0.44140
1186.19418,0.44456
1184.26541,0.44772
1182.33663,0.45084
1180.40786,0.45394
1178.47909,0.45708
1176.55032,0.46037
1174.62155,0.46379
1172.69278,0.46725
1170.76401,0.47081
1168.83524,0.47435
1166.90647,0.47762
1164.97770,0.48061
1163.04892,0.48347
1161.12015,0.48642
1159.19138,0.48970
1157.26261,0.49333
1155.33384,0.49729
1153.40507,0.50174
1151.47630,0.50671
1149.54753,0.51217
1147.61876,0.51823
1145.68999,0.52498
1143.76121,0.53252
1141.83244,0.54079
1139.90367,0.54915
1137.97490,0.55692
1136.04613,0.56435
1134.11736,0.57248
1132.18859,0.58243
1130.25982,0.59475
1128.33105,0.60904
1126.40228,0.62472
1124.47350,0.64100
1122.54473,0.65578
1120.61596,0.66653
1118.68719,0.67229
1116.75842,0.67437
1114.82965,0.67561
1112.90088,0.67875
1110.97211,0.68520
1109.04334,0.69551
1107.11456,0.70977
1105.18579,0.72740
1103.25702,0.74763
1101.32825,0.76991
1099.39948,0.79355
1097.47071,0.81798
1095.54194,0.84245
1093.61317,0.86578
1091.68440,0.88726
1089.75563,0.90688
1087.82685,0.92413
1085.89808,0.93852
1083.96931,0.95009
1082.04054,0.95895
1080.11177,0.96561
1078.18300,0.97057
1076.25423,0.97395
1074.32546,0.97633
1072.39669,0.97874
1070.46792,0.98140
1068.53914,0.98403
1066.61037,0.98621
1064.68160,0.98735
1062.75283,0.98773
1060.82406,0.98738
1058.89529,0.98522
1056.96652,0.98072
1055.03775,0.97394
1053.10898,0.96455
1051.18021,0.95212
1049.25143,0.93631
1047.32266,0.91714
1045.39389,0.89600
1043.46512,0.87466
1041.53635,0.85433
1039.60758,0.83657
1037.67881,0.82282
1035.75004,0.81359
1033.82127,0.80847
1031.89250,0.80597
1029.96372,0.80406
1028.03495,0.80136
1026.10618,0.79688
1024.17741,0.78970
1022.24864,0.77999
1020.31987,0.76865
1018.39110,0.75685
1016.46233,0.74574
1014.53356,0.73569
1012.60478,0.72665
1010.67601,0.71898
1008.74724,0.71301
1006.81847,0.70845
1004.88970,0.70466
1002.96093,0.70055
1001.03216,0.69482
999.10339,0.68653
997.17462,0.67519
995.24585,0.66143
993.31707,0.64739
991.38830,0.63590
989.45953,0.62959
987.53076,0.63059
985.60199,0.63986
983.67322,0.65723
981.74445,0.68185
979.81568,0.71203
977.88691,0.74569
975.95814,0.78090
974.02936,0.81545
972.10059,0.84675
970.17182,0.87258
968.24305,0.89161
966.31428,0.90442
964.38551,0.91372
962.45674,0.92228
960.52797,0.93178
958.59920,0.94306
956.67043,0.95600
954.74165,0.96995
952.81288,0.98390
950.88411,0.99582
948.95534,1.00405
947.02657,1.00864
945.09780,1.00997
943.16903,1.00832
941.24026,1.00423
939.31149,0.99805
937.38272,0.99047
935.45394,0.98203
933.52517,0.97206
931.59640,0.95993
929.66763,0.94551
927.73886,0.92797
925.81009,0.90580
923.88132,0.87785
921.95255,0.84400
920.02378,0.80643
918.09501,0.76902
916.16623,0.73545
914.23746,0.70821
912.30869,0.68789
910.37992,0.67381
908.45115,0.66625
906.52238,0.66663
904.59361,0.67578
902.66484,0.69296
900.73607,0.71554
898.80729,0.73956
896.87852,0.76176
894.94975,0.78080
893.02098,0.79666
891.09221,0.81011
889.16344,0.82163
887.23467,0.83082
885.30590,0.83772
883.37713,0.84267
881.44836,0.84533
879.51958,0.84540
877.59081,0.84287
875.66204,0.83780
873.73327,0.83064
871.80450,0.82154
869.87573,0.81007
867.94696,0.79656
866.01819,0.78174
864.08942,0.76559
862.16065,0.74796
860.23187,0.72871
858.30310,0.70787
856.37433,0.68607
854.44556,0.66367
852.51679,0.64061
850.58802,0.61752
848.65925,0.59530
846.73048,0.57429
844.80171,0.55457
842.87294,0.53575
840.94416,0.51740
839.01539,0.49975
837.08662,0.48321
835.15785,0.46774
833.22908,0.45331
831.30031,0.43985
829.37154,0.42714
827.44277,0.41506
825.51400,0.40338
823.58523,0.39203
821.65645,0.38133
819.72768,0.37144
817.79891,0.36216
815.87014,0.35347
813.94137,0.34540
812.01260,0.33790
810.08383,0.33104
808.15506,0.32463
806.22629,0.31849
804.29751,0.31274
802.36874,0.30742
800.43997,0.30230
798.51120,0.29725
796.58243,0.29217
794.65366,0.28714
792.72489,0.28235
790.79612,0.27774
788.86735,0.27318
786.93858,0.26876
785.00980,0.26457
783.08103,0.26055
781.15226,0.25659
779.22349,0.25252
777.29472,0.24838
775.36595,0.24446
773.43718,0.24084
771.50841,0.23751
769.57964,0.23458
767.65087,0.23216
765.72209,0.23029
763.79332,0.22891
761.86455,0.22777
759.93578,0.22678
758.00701,0.22612
756.07824,0.22596
754.14947,0.22661
752.22070,0.22874
750.29193,0.23298
748.36316,0.23972
746.43438,0.24812
744.50561,0.25529
742.57684,0.25842
740.64807,0.25819
738.71930,0.25835
736.79053,0.26238
734.86176,0.27175
732.93299,0.28615
731.00422,0.30384
729.07545,0.32093
727.14667,0.33168
725.21790,0.33249
723.28913,0.32486
721.36036,0.31293
719.43159,0.30066
717.50282,0.29077
715.57405,0.28365
713.64528,0.27904
711.71651,0.27693
709.78773,0.27691
707.85896,0.27859
705.93019,0.28192
704.00142,0.28694
702.07265,0.29370
700.14388,0.30213
698.21511,0.31221
696.28634,0.32433
694.35757,0.33893
692.42880,0.35564
690.50002,0.37328
688.57125,0.38963
686.64248,0.40140
684.71371,0.40622
682.78494,0.40400
680.85617,0.39680
678.92740,0.38804
676.99863,0.37981
675.06986,0.37198
673.14109,0.36450
671.21231,0.35800
669.28354,0.35232
667.35477,0.35024
665.42600,0.35316
663.49723,0.35851
661.56846,0.36729
659.63969,0.38044
657.71092,0.39773
655.78215,0.41851
653.85338,0.44111
651.92460,0.46338
649.99583,0.48457
648.06706,0.50456
646.13829,0.52214
644.20952,0.53601
642.28075,0.54419
640.35198,0.54491
638.42321,0.53850
636.49444,0.52732
634.56567,0.51467
632.63689,0.50418
630.70812,0.49737
628.77935,0.49353
626.85058,0.49180
624.92181,0.49116
622.99304,0.49080
621.06427,0.49002
619.13550,0.48769
617.20673,0.48312
615.27796,0.47701
613.34918,0.46982
611.42041,0.46154
609.49164,0.45313
607.56287,0.44556
605.63410,0.43962
603.70533,0.43585
601.77656,0.43365
599.84779,0.43254
597.91902,0.43304
595.99024,0.43534
594.06147,0.43901
592.13270,0.44388
590.20393,0.44967
588.27516,0.45651
586.34639,0.46506
584.41762,0.47493
582.48885,0.48576
580.56008,0.49835
578.63131,0.51321
576.70253,0.53068
574.77376,0.55109
572.84499,0.57377
570.91622,0.59901
568.98745,0.62766
567.05868,0.65756
565.12991,0.68573
563.20114,0.71055
561.27237,0.73034
559.34360,0.74463
557.41482,0.75444
555.48605,0.76132
553.55728,0.76844
551.62851,0.77864
549.69974,0.79074
547.77097,0.80357
545.84220,0.81837
543.91343,0.83505
541.98466,0.85326
540.05589,0.87150
538.12711,0.88609
536.19834,0.89613
534.26957,0.90212
532.34080,0.90108
530.41203,0.89342
528.48326,0.88780
526.55449,0.89501
524.62572,0.92235
522.69695,0.96497
520.76818,1.01000
518.83940,1.05111
516.91063,1.08893
514.98186,1.12350
513.05309,1.15523
511.12432,1.18255
509.19555,1.20197
507.26678,1.22012
505.33801,1.23988
503.40924,1.24871
501.48046,1.24249
499.55169,1.22795
497.62292,1.20708
495.69415,1.18025
493.76538,1.14395
491.83661,1.09565
489.90784,1.04587
487.97907,1.00036
486.05030,0.95357
484.12153,0.90592
482.19275,0.86211
480.26398,0.82343
478.33521,0.78951
476.40644,0.75804
474.47767,0.72787
472.54890,0.70516
470.62013,0.69629
468.69136,0.69732
466.76259,0.70055
464.83382,0.70118
462.90504,0.70034
460.97627,0.70284
459.04750,0.70683
457.11873,0.70633
455.18996,0.70300
453.26119,0.69989
451.33242,0.69660
449.40365,0.69361
447.47488,0.69003
445.54611,0.68534
443.61733,0.68010
441.68856,0.66892
439.75979,0.64766
437.83102,0.62089
435.90225,0.59338
433.97348,0.56885
432.04471,0.54931
430.11594,0.53341
428.18717,0.52200
426.25840,0.51703
424.32962,0.51384
422.40085,0.50672
420.47208,0.49749
418.54331,0.49043
416.61454,0.49038
414.68577,0.49743
412.75700,0.50558
410.82823,0.51176
408.89946,0.51921
406.97069,0.52579
405.04191,0.52626
403.11314,0.52328
401.18437,0.52174
399.25560,0.52877
397.32683,0.54962
395.39806,0.56486
393.46929,0.56579
391.54052,0.56785
389.61175,0.57057
387.68297,0.56643
385.75420,0.55438
383.82543,0.53389
381.89666,0.51919
379.96789,0.51971
378.03912,0.51521
376.11035,0.49281
374.18158,0.47894
372.25281,0.48212
370.32404,0.48836
368.39526,0.48797
366.46649,0.46098
364.53772,0.44229
362.60895,0.47898
360.68018,0.52849
358.75141,0.52935
356.82264,0.53144
354.89387,0.59553
352.96510,0.77367
351.03633,0.80911
349.10755,0.56382
